Data from FLMS025871_11-00-59-835.txt Node
Date: Fri Nov 20 11:00:59 GMT 2020
User: phr20zw
Spectrometer: FLMS02587
Trigger mode: 0
Integration Time (sec): 2.000000E-2
Scans to average: 1
Electric dark correction enabled: true
Nonlinearity correction enabled: false
Boxcar width: 0
XAxis mode: Wavelengths
Number of Pixels in Spectrum: 2048
>>>>>Begin Spectral Data<<<<<
339.619	-76.63
340	-76.63
340.381	-76.63
340.762	-74.15
341.143	-170.95
341.524	-101.46
341.904	-94.01
342.285	-39.4
342.666	-84.08
343.046	-39.4
343.427	-84.08
343.807	-59.26
344.188	-2.17
344.568	0.31
344.949	-7.14
345.329	35.06
345.71	32.58
346.09	129.38
346.47	12.72
346.85	166.61
347.23	134.34
347.611	97.11
347.991	141.79
348.371	211.29
348.751	193.91
349.131	243.56
349.511	298.16
349.891	280.79
350.27	300.64
350.65	223.7
351.03	278.31
351.41	285.75
351.79	325.47
352.169	315.54
352.549	313.06
352.928	255.97
353.308	278.31
353.687	288.23
354.067	308.09
354.446	357.73
354.826	322.98
355.205	305.61
355.584	355.25
355.964	275.82
356.343	305.61
356.722	352.77
357.101	397.45
357.48	332.91
357.859	318.02
358.238	303.13
358.617	293.2
358.996	275.82
359.375	258.45
359.754	295.68
360.133	347.8
360.512	253.48
360.891	407.38
361.269	280.79
361.648	303.13
362.027	325.47
362.405	382.55
362.784	280.79
363.162	275.82
363.541	352.77
363.919	362.7
364.298	298.16
364.676	330.43
365.054	327.95
365.433	352.77
365.811	278.31
366.189	305.61
366.567	265.9
366.945	280.79
367.323	322.98
367.701	305.61
368.079	387.52
368.457	273.34
368.835	255.97
369.213	283.27
369.591	318.02
369.969	310.57
370.346	332.91
370.724	253.48
371.102	293.2
371.479	360.22
371.857	350.29
372.235	263.41
372.612	283.27
372.99	332.91
373.367	285.75
373.744	295.68
374.122	288.23
374.499	382.55
374.876	298.16
375.254	288.23
375.631	318.02
376.008	280.79
376.385	288.23
376.762	320.5
377.139	390
377.516	285.75
377.893	345.32
378.27	315.54
378.647	280.79
379.024	315.54
379.4	283.27
379.777	303.13
380.154	313.06
380.53	380.07
380.907	352.77
381.284	362.7
381.66	258.45
382.037	288.23
382.413	275.82
382.79	308.09
383.166	193.91
383.542	280.79
383.919	226.18
384.295	268.38
384.671	360.22
385.047	357.73
385.423	310.57
385.799	263.41
386.176	345.32
386.552	325.47
386.928	295.68
387.303	340.36
387.679	288.23
388.055	273.34
388.431	278.31
388.807	372.63
389.183	340.36
389.558	330.43
389.934	308.09
390.309	315.54
390.685	318.02
391.061	310.57
391.436	315.54
391.811	345.32
392.187	293.2
392.562	325.47
392.938	330.43
393.313	342.84
393.688	268.38
394.063	392.48
394.438	322.98
394.814	345.32
395.189	357.73
395.564	265.9
395.939	322.98
396.314	268.38
396.689	347.8
397.063	246.04
397.438	313.06
397.813	298.16
398.188	375.11
398.563	365.18
398.937	347.8
399.312	397.45
399.686	300.64
400.061	342.84
400.435	332.91
400.81	310.57
401.184	325.47
401.559	360.22
401.933	352.77
402.307	352.77
402.682	350.29
403.056	332.91
403.43	404.89
403.804	377.59
404.178	288.23
404.552	350.29
404.926	372.63
405.3	347.8
405.674	285.75
406.048	350.29
406.422	320.5
406.796	327.95
407.169	330.43
407.543	263.41
407.917	305.61
408.291	365.18
408.664	315.54
409.038	211.29
409.411	308.09
409.785	313.06
410.158	293.2
410.531	308.09
410.905	300.64
411.278	300.64
411.651	318.02
412.025	298.16
412.398	335.39
412.771	355.25
413.144	434.68
413.517	330.43
413.89	424.75
414.263	303.13
414.636	357.73
415.009	362.7
415.382	350.29
415.755	322.98
416.127	352.77
416.5	295.68
416.873	327.95
417.245	375.11
417.618	342.84
417.991	437.16
418.363	332.91
418.736	330.43
419.108	313.06
419.48	342.84
419.853	360.22
420.225	347.8
420.597	315.54
420.97	342.84
421.342	412.34
421.714	414.82
422.086	310.57
422.458	318.02
422.83	298.16
423.202	347.8
423.574	362.7
423.946	404.89
424.318	350.29
424.69	325.47
425.061	325.47
425.433	318.02
425.805	347.8
426.177	290.72
426.548	407.38
426.92	352.77
427.291	355.25
427.663	390
428.034	340.36
428.406	375.11
428.777	357.73
429.148	313.06
429.519	255.97
429.891	290.72
430.262	332.91
430.633	265.9
431.004	303.13
431.375	347.8
431.746	375.11
432.117	352.77
432.488	447.09
432.859	357.73
433.23	380.07
433.601	407.38
433.971	332.91
434.342	345.32
434.713	370.14
435.083	424.75
435.454	414.82
435.825	447.09
436.195	332.91
436.566	350.29
436.936	377.59
437.306	342.84
437.677	300.64
438.047	377.59
438.417	310.57
438.788	390
439.158	362.7
439.528	345.32
439.898	370.14
440.268	419.79
440.638	350.29
441.008	342.84
441.378	382.55
441.748	300.64
442.118	285.75
442.487	414.82
442.857	367.66
443.227	387.52
443.597	320.5
443.966	407.38
444.336	318.02
444.705	385.04
445.075	360.22
445.444	390
445.814	380.07
446.183	300.64
446.552	313.06
446.922	380.07
447.291	404.89
447.66	325.47
448.029	429.71
448.398	322.98
448.768	385.04
449.137	412.34
449.506	372.63
449.875	469.43
450.243	337.88
450.612	397.45
450.981	357.73
451.35	332.91
451.719	345.32
452.087	370.14
452.456	350.29
452.825	295.68
453.193	327.95
453.562	377.59
453.93	394.96
454.299	390
454.667	372.63
455.035	320.5
455.404	315.54
455.772	367.66
456.14	439.64
456.508	417.3
456.877	310.57
457.245	332.91
457.613	320.5
457.981	315.54
458.349	365.18
458.717	345.32
459.085	318.02
459.452	365.18
459.82	382.55
460.188	357.73
460.556	332.91
460.923	449.57
461.291	367.66
461.659	407.38
462.026	290.72
462.394	337.88
462.761	454.54
463.128	464.46
463.496	275.82
463.863	385.04
464.23	320.5
464.598	283.27
464.965	417.3
465.332	392.48
465.699	357.73
466.066	404.89
466.433	417.3
466.8	355.25
467.167	352.77
467.534	399.93
467.901	407.38
468.268	280.79
468.635	298.16
469.001	342.84
469.368	399.93
469.735	335.39
470.101	360.22
470.468	360.22
470.834	342.84
471.201	394.96
471.567	303.13
471.934	409.86
472.3	365.18
472.666	347.8
473.032	352.77
473.399	342.84
473.765	285.75
474.131	382.55
474.497	355.25
474.863	322.98
475.229	337.88
475.595	387.52
475.961	342.84
476.327	402.41
476.693	258.45
477.058	285.75
477.424	360.22
477.79	372.63
478.156	382.55
478.521	330.43
478.887	347.8
479.252	355.25
479.618	412.34
479.983	352.77
480.348	350.29
480.714	335.39
481.079	303.13
481.444	397.45
481.81	362.7
482.175	310.57
482.54	407.38
482.905	298.16
483.27	375.11
483.635	322.98
484	390
484.365	385.04
484.73	340.36
485.095	407.38
485.459	392.48
485.824	345.32
486.189	387.52
486.553	370.14
486.918	424.75
487.283	397.45
487.647	372.63
488.012	355.25
488.376	355.25
488.74	308.09
489.105	370.14
489.469	367.66
489.833	397.45
490.198	402.41
490.562	350.29
490.926	404.89
491.29	385.04
491.654	375.11
492.018	377.59
492.382	310.57
492.746	273.34
493.11	357.73
493.474	318.02
493.837	295.68
494.201	360.22
494.565	402.41
494.928	459.5
495.292	399.93
495.656	293.2
496.019	310.57
496.383	382.55
496.746	365.18
497.109	365.18
497.473	362.7
497.836	419.79
498.199	392.48
498.563	367.66
498.926	362.7
499.289	407.38
499.652	355.25
500.015	402.41
500.378	345.32
500.741	288.23
501.104	340.36
501.467	407.38
501.829	327.95
502.192	377.59
502.555	414.82
502.918	305.61
503.28	330.43
503.643	360.22
504.005	300.64
504.368	322.98
504.73	347.8
505.093	385.04
505.455	360.22
505.817	365.18
506.18	367.66
506.542	315.54
506.904	372.63
507.266	365.18
507.628	372.63
507.991	399.93
508.353	313.06
508.715	332.91
509.076	322.98
509.438	293.2
509.8	340.36
510.162	377.59
510.524	322.98
510.885	362.7
511.247	387.52
511.609	385.04
511.97	365.18
512.332	392.48
512.693	367.66
513.055	404.89
513.416	342.84
513.778	422.27
514.139	352.77
514.5	424.75
514.861	288.23
515.223	362.7
515.584	268.38
515.945	372.63
516.306	387.52
516.667	390
517.028	382.55
517.389	360.22
517.75	392.48
518.11	385.04
518.471	429.71
518.832	342.84
519.193	330.43
519.553	318.02
519.914	347.8
520.274	355.25
520.635	402.41
520.995	409.86
521.356	439.64
521.716	325.47
522.076	397.45
522.437	268.38
522.797	345.32
523.157	380.07
523.517	342.84
523.877	345.32
524.238	305.61
524.598	278.31
524.958	330.43
525.317	427.23
525.677	412.34
526.037	407.38
526.397	409.86
526.757	399.93
527.116	325.47
527.476	447.09
527.836	474.39
528.195	484.32
528.555	365.18
528.914	347.8
529.274	365.18
529.633	357.73
529.993	367.66
530.352	367.66
530.711	280.79
531.07	357.73
531.429	365.18
531.789	330.43
532.148	385.04
532.507	295.68
532.866	414.82
533.225	352.77
533.584	325.47
533.942	397.45
534.301	318.02
534.66	412.34
535.019	412.34
535.377	347.8
535.736	315.54
536.095	300.64
536.453	342.84
536.812	382.55
537.17	370.14
537.528	372.63
537.887	390
538.245	402.41
538.603	357.73
538.962	429.71
539.32	412.34
539.678	479.36
540.036	452.05
540.394	409.86
540.752	494.25
541.11	486.8
541.468	529
541.826	501.7
542.184	454.54
542.541	566.23
542.899	444.61
543.257	469.43
543.614	576.16
543.972	521.55
544.33	514.11
544.687	506.66
545.045	538.93
545.402	648.14
545.759	630.76
546.117	501.7
546.474	543.89
546.831	479.36
547.188	509.14
547.546	357.73
547.903	561.27
548.26	412.34
548.617	464.46
548.974	454.54
549.331	409.86
549.687	407.38
550.044	442.12
550.401	397.45
550.758	397.45
551.114	454.54
551.471	469.43
551.828	407.38
552.184	315.54
552.541	370.14
552.897	342.84
553.254	355.25
553.61	444.61
553.966	402.41
554.323	464.46
554.679	372.63
555.035	362.7
555.391	432.2
555.747	352.77
556.103	412.34
556.459	313.06
556.815	337.88
557.171	322.98
557.527	362.7
557.883	457.02
558.239	387.52
558.594	360.22
558.95	357.73
559.306	327.95
559.661	320.5
560.017	409.86
560.372	409.86
560.728	315.54
561.083	390
561.438	335.39
561.794	409.86
562.149	419.79
562.504	367.66
562.859	390
563.215	377.59
563.57	409.86
563.925	390
564.28	370.14
564.635	434.68
564.99	409.86
565.344	479.36
565.699	380.07
566.054	375.11
566.409	352.77
566.763	380.07
567.118	409.86
567.473	449.57
567.827	377.59
568.182	367.66
568.536	404.89
568.891	409.86
569.245	414.82
569.599	414.82
569.953	409.86
570.308	412.34
570.662	419.79
571.016	427.23
571.37	457.02
571.724	419.79
572.078	476.87
572.432	355.25
572.786	439.64
573.14	370.14
573.494	504.18
573.847	365.18
574.201	471.91
574.555	489.28
574.908	504.18
575.262	481.84
575.615	466.95
575.969	516.59
576.322	454.54
576.676	447.09
577.029	362.7
577.382	469.43
577.736	479.36
578.089	506.66
578.442	474.39
578.795	427.23
579.148	494.25
579.501	479.36
579.854	459.5
580.207	491.77
580.56	529
580.913	476.87
581.265	538.93
581.618	514.11
581.971	571.19
582.324	563.75
582.676	479.36
583.029	538.93
583.381	476.87
583.734	561.27
584.086	536.44
584.438	529
584.791	524.03
585.143	553.82
585.495	685.37
585.847	593.53
586.2	583.6
586.552	615.87
586.904	581.12
587.256	593.53
587.608	645.66
587.959	586.09
588.311	668
588.663	715.16
589.015	640.69
589.367	653.1
589.718	702.75
590.07	722.6
590.421	692.82
590.773	730.05
591.124	730.05
591.476	789.62
591.827	824.37
592.179	814.44
592.53	794.58
592.881	799.55
593.232	933.58
593.584	906.28
593.935	866.56
594.286	926.14
594.637	973.3
594.988	955.92
595.339	985.71
595.689	1010.53
596.04	1050.24
596.391	1045.28
596.742	1109.81
597.092	1000.6
597.443	1087.47
597.794	1072.58
598.144	1144.56
598.495	1201.65
598.845	1221.51
599.196	1201.65
599.546	1328.24
599.896	1397.73
600.247	1397.73
600.597	1367.95
600.947	1482.13
601.297	1499.5
601.647	1524.32
601.997	1569
602.347	1678.21
602.697	1720.41
603.047	1760.12
603.397	1802.32
603.747	1804.8
604.096	1948.76
604.446	2038.12
604.796	2018.26
605.145	2110.1
605.495	2239.17
605.844	2172.15
606.194	2241.65
606.543	2395.54
606.893	2522.13
607.242	2527.09
607.591	2596.59
607.94	2636.31
608.29	2792.68
608.639	2857.21
608.988	2894.44
609.337	3008.62
609.686	3137.69
610.035	3199.74
610.384	3500.08
610.733	3604.33
611.081	3711.06
611.43	3830.2
611.779	3835.16
612.127	3847.57
612.476	4197.55
612.825	4373.78
613.173	4343.99
613.522	4644.33
613.87	4557.45
614.218	4790.77
614.567	4919.84
614.915	5043.95
615.263	5406.33
615.611	5418.74
615.96	5714.11
616.308	5738.94
616.656	6029.34
617.004	6285
617.352	6558.03
617.7	7044.52
618.047	6977.51
618.395	7548.39
618.743	7523.57
619.091	7853.69
619.438	8320.32
619.786	8419.61
620.134	8769.58
620.481	9139.42
620.829	9603.57
621.176	9812.07
621.523	10541.81
621.871	10626.2
622.218	10931.5
622.565	11370.83
622.912	12006.25
623.259	12371.12
623.607	12755.84
623.954	13262.19
624.301	13480.62
624.648	13897.61
624.994	14513.17
625.341	14977.33
625.688	15453.89
626.035	15990.03
626.382	16322.63
626.728	16764.44
627.075	16868.69
627.421	17618.29
627.768	17881.39
628.114	17829.27
628.461	18536.67
628.807	18310.79
629.154	18526.74
629.5	18360.44
629.846	18218.96
630.192	17968.26
630.538	17824.3
630.884	17288.17
631.231	17034.99
631.577	16062.01
631.922	15741.82
632.268	15014.56
632.614	14230.21
632.96	13671.74
633.306	12986.68
633.651	12053.41
633.997	11445.29
634.343	10586.49
634.688	9876.6
635.034	9191.54
635.379	8357.56
635.725	7948.01
636.07	7255.5
636.415	6771.49
636.761	6379.32
637.106	5987.15
637.451	5371.58
637.796	5009.2
638.141	4808.15
638.486	4378.74
638.831	4103.23
639.176	3800.41
639.521	3698.65
639.866	3423.13
640.211	3284.13
640.555	3095.49
640.9	2879.55
641.245	2641.27
641.589	2517.16
641.934	2442.7
642.278	2308.67
642.623	2216.83
642.967	2122.51
643.312	2015.78
643.656	1899.12
644	1762.6
644.344	1631.05
644.689	1593.82
645.033	1631.05
645.377	1372.91
645.721	1350.58
646.065	1273.63
646.409	1196.68
646.753	1179.31
647.096	1159.45
647.44	1080.03
647.784	1144.56
648.128	1013.01
648.471	978.26
648.815	908.76
649.158	1013.01
649.502	767.28
649.845	802.03
650.189	859.12
650.532	779.69
650.875	643.18
651.218	618.35
651.562	655.59
651.905	615.87
652.248	581.12
652.591	670.48
652.934	668
653.277	593.53
653.62	588.57
653.963	501.7
654.305	591.05
654.648	504.18
654.991	546.37
655.334	474.39
655.676	432.2
656.019	506.66
656.361	531.48
656.704	509.14
657.046	471.91
657.389	506.66
657.731	434.68
658.073	422.27
658.415	409.86
658.757	432.2
659.1	404.89
659.442	461.98
659.784	412.34
660.126	494.25
660.468	496.73
660.809	397.45
661.151	471.91
661.493	461.98
661.835	476.87
662.177	414.82
662.518	454.54
662.86	447.09
663.201	427.23
663.543	380.07
663.884	397.45
664.226	402.41
664.567	385.04
664.908	365.18
665.249	404.89
665.591	409.86
665.932	318.02
666.273	387.52
666.614	367.66
666.955	372.63
667.296	429.71
667.637	390
667.978	424.75
668.318	394.96
668.659	367.66
669	504.18
669.341	370.14
669.681	318.02
670.022	397.45
670.362	350.29
670.703	362.7
671.043	394.96
671.383	370.14
671.724	355.25
672.064	414.82
672.404	382.55
672.744	367.66
673.085	345.32
673.425	352.77
673.765	362.7
674.105	397.45
674.444	315.54
674.784	387.52
675.124	387.52
675.464	367.66
675.804	394.96
676.143	357.73
676.483	380.07
676.823	404.89
677.162	409.86
677.501	392.48
677.841	380.07
678.18	394.96
678.52	412.34
678.859	390
679.198	357.73
679.537	370.14
679.876	332.91
680.215	362.7
680.555	370.14
680.894	280.79
681.232	375.11
681.571	382.55
681.91	347.8
682.249	404.89
682.588	320.5
682.926	362.7
683.265	392.48
683.604	360.22
683.942	407.38
684.281	340.36
684.619	357.73
684.957	402.41
685.296	355.25
685.634	454.54
685.972	340.36
686.31	380.07
686.649	382.55
686.987	412.34
687.325	303.13
687.663	444.61
688.001	320.5
688.338	422.27
688.676	337.88
689.014	263.41
689.352	387.52
689.69	350.29
690.027	313.06
690.365	315.54
690.702	347.8
691.04	350.29
691.377	345.32
691.715	382.55
692.052	377.59
692.389	394.96
692.726	335.39
693.064	332.91
693.401	352.77
693.738	385.04
694.075	407.38
694.412	372.63
694.749	372.63
695.086	407.38
695.423	332.91
695.759	340.36
696.096	362.7
696.433	293.2
696.769	394.96
697.106	347.8
697.443	399.93
697.779	372.63
698.116	397.45
698.452	342.84
698.788	320.5
699.125	305.61
699.461	377.59
699.797	300.64
700.133	377.59
700.469	394.96
700.805	417.3
701.141	330.43
701.477	305.61
701.813	330.43
702.149	407.38
702.485	340.36
702.82	310.57
703.156	442.12
703.492	404.89
703.827	380.07
704.163	375.11
704.498	325.47
704.834	392.48
705.169	357.73
705.505	340.36
705.84	303.13
706.175	352.77
706.51	322.98
706.845	375.11
707.18	399.93
707.515	332.91
707.85	422.27
708.185	377.59
708.52	367.66
708.855	409.86
709.19	437.16
709.525	377.59
709.859	355.25
710.194	390
710.529	335.39
710.863	394.96
711.198	300.64
711.532	377.59
711.866	380.07
712.201	382.55
712.535	392.48
712.869	375.11
713.203	390
713.537	375.11
713.872	352.77
714.206	288.23
714.54	322.98
714.873	380.07
715.207	357.73
715.541	337.88
715.875	345.32
716.209	342.84
716.542	360.22
716.876	390
717.21	285.75
717.543	377.59
717.877	422.27
718.21	419.79
718.543	380.07
718.877	352.77
719.21	404.89
719.543	392.48
719.876	375.11
720.209	315.54
720.542	342.84
720.875	347.8
721.208	347.8
721.541	337.88
721.874	437.16
722.207	372.63
722.54	370.14
722.872	355.25
723.205	414.82
723.538	365.18
723.87	357.73
724.203	285.75
724.535	347.8
724.868	288.23
725.2	392.48
725.532	265.9
725.865	417.3
726.197	350.29
726.529	365.18
726.861	322.98
727.193	337.88
727.525	350.29
727.857	390
728.189	372.63
728.521	382.55
728.853	246.04
729.184	360.22
729.516	355.25
729.848	308.09
730.179	313.06
730.511	298.16
730.842	295.68
731.174	362.7
731.505	409.86
731.836	332.91
732.168	399.93
732.499	357.73
732.83	342.84
733.161	399.93
733.492	293.2
733.823	310.57
734.154	315.54
734.485	347.8
734.816	385.04
735.147	452.05
735.478	335.39
735.808	332.91
736.139	444.61
736.47	362.7
736.8	347.8
737.131	303.13
737.461	382.55
737.792	352.77
738.122	432.2
738.452	380.07
738.782	308.09
739.113	367.66
739.443	313.06
739.773	367.66
740.103	340.36
740.433	350.29
740.763	394.96
741.093	332.91
741.423	394.96
741.752	335.39
742.082	385.04
742.412	347.8
742.742	372.63
743.071	466.95
743.401	387.52
743.73	337.88
744.06	385.04
744.389	337.88
744.718	320.5
745.048	315.54
745.377	310.57
745.706	322.98
746.035	434.68
746.364	375.11
746.693	322.98
747.022	300.64
747.351	288.23
747.68	342.84
748.009	342.84
748.338	342.84
748.666	325.47
748.995	370.14
749.323	347.8
749.652	442.12
749.981	308.09
750.309	313.06
750.637	479.36
750.966	315.54
751.294	372.63
751.622	380.07
751.95	367.66
752.279	290.72
752.607	327.95
752.935	432.2
753.263	399.93
753.591	404.89
753.919	330.43
754.246	335.39
754.574	313.06
754.902	360.22
755.23	412.34
755.557	365.18
755.885	357.73
756.212	332.91
756.54	345.32
756.867	308.09
757.195	308.09
757.522	325.47
757.849	313.06
758.176	293.2
758.503	340.36
758.831	310.57
759.158	362.7
759.485	481.84
759.812	337.88
760.138	424.75
760.465	409.86
760.792	362.7
761.119	322.98
761.446	385.04
761.772	367.66
762.099	310.57
762.425	337.88
762.752	427.23
763.078	377.59
763.405	340.36
763.731	390
764.057	330.43
764.383	345.32
764.71	429.71
765.036	325.47
765.362	325.47
765.688	404.89
766.014	263.41
766.34	390
766.665	332.91
766.991	367.66
767.317	397.45
767.643	382.55
767.968	295.68
768.294	347.8
768.619	335.39
768.945	325.47
769.27	303.13
769.596	342.84
769.921	409.86
770.246	298.16
770.572	337.88
770.897	387.52
771.222	327.95
771.547	355.25
771.872	419.79
772.197	335.39
772.522	320.5
772.847	365.18
773.171	327.95
773.496	345.32
773.821	337.88
774.146	305.61
774.47	357.73
774.795	350.29
775.119	293.2
775.444	390
775.768	367.66
776.092	320.5
776.417	345.32
776.741	327.95
777.065	345.32
777.389	345.32
777.713	404.89
778.037	357.73
778.361	350.29
778.685	303.13
779.009	337.88
779.333	422.27
779.657	414.82
779.98	345.32
780.304	372.63
780.627	355.25
780.951	332.91
781.274	352.77
781.598	322.98
781.921	248.52
782.245	377.59
782.568	427.23
782.891	387.52
783.214	332.91
783.537	315.54
783.861	350.29
784.184	325.47
784.506	419.79
784.829	422.27
785.152	332.91
785.475	345.32
785.798	427.23
786.12	320.5
786.443	342.84
786.766	367.66
787.088	352.77
787.411	360.22
787.733	330.43
788.056	407.38
788.378	330.43
788.7	377.59
789.022	345.32
789.345	355.25
789.667	365.18
789.989	300.64
790.311	305.61
790.633	313.06
790.955	347.8
791.276	327.95
791.598	385.04
791.92	362.7
792.242	327.95
792.563	385.04
792.885	385.04
793.206	313.06
793.528	367.66
793.849	310.57
794.171	322.98
794.492	283.27
794.813	387.52
795.134	385.04
795.456	320.5
795.777	327.95
796.098	332.91
796.419	325.47
796.74	362.7
797.061	345.32
797.381	340.36
797.702	367.66
798.023	377.59
798.344	342.84
798.664	298.16
798.985	385.04
799.305	380.07
799.626	370.14
799.946	308.09
800.267	365.18
800.587	342.84
800.907	295.68
801.227	360.22
801.548	365.18
801.868	357.73
802.188	327.95
802.508	382.55
802.828	399.93
803.147	347.8
803.467	414.82
803.787	434.68
804.107	327.95
804.426	385.04
804.746	305.61
805.066	382.55
805.385	362.7
805.705	370.14
806.024	332.91
806.343	372.63
806.663	397.45
806.982	322.98
807.301	365.18
807.62	293.2
807.939	283.27
808.258	385.04
808.577	298.16
808.896	273.34
809.215	367.66
809.534	427.23
809.852	278.31
810.171	231.15
810.49	387.52
810.808	345.32
811.127	330.43
811.445	300.64
811.764	370.14
812.082	434.68
812.401	437.16
812.719	345.32
813.037	409.86
813.355	350.29
813.673	357.73
813.991	390
814.309	357.73
814.627	345.32
814.945	399.93
815.263	429.71
815.581	365.18
815.899	360.22
816.216	412.34
816.534	350.29
816.851	275.82
817.169	357.73
817.486	360.22
817.804	372.63
818.121	439.64
818.438	337.88
818.756	285.75
819.073	434.68
819.39	357.73
819.707	454.54
820.024	285.75
820.341	347.8
820.658	263.41
820.975	340.36
821.292	357.73
821.608	332.91
821.925	370.14
822.242	347.8
822.558	310.57
822.875	290.72
823.191	422.27
823.508	404.89
823.824	404.89
824.141	424.75
824.457	340.36
824.773	397.45
825.089	337.88
825.405	318.02
825.721	327.95
826.037	325.47
826.353	380.07
826.669	290.72
826.985	419.79
827.301	390
827.617	367.66
827.932	255.97
828.248	300.64
828.563	300.64
828.879	260.93
829.194	300.64
829.51	422.27
829.825	350.29
830.14	394.96
830.456	325.47
830.771	305.61
831.086	387.52
831.401	335.39
831.716	372.63
832.031	293.2
832.346	347.8
832.661	360.22
832.976	342.84
833.29	377.59
833.605	387.52
833.92	375.11
834.234	399.93
834.549	387.52
834.863	335.39
835.178	380.07
835.492	337.88
835.806	305.61
836.121	370.14
836.435	322.98
836.749	320.5
837.063	325.47
837.377	377.59
837.691	404.89
838.005	372.63
838.319	320.5
838.633	298.16
838.946	385.04
839.26	402.41
839.574	303.13
839.887	320.5
840.201	380.07
840.514	308.09
840.828	377.59
841.141	298.16
841.455	399.93
841.768	419.79
842.081	370.14
842.394	380.07
842.707	330.43
843.02	310.57
843.333	305.61
843.646	375.11
843.959	404.89
844.272	355.25
844.585	375.11
844.898	337.88
845.21	417.3
845.523	452.05
845.835	377.59
846.148	352.77
846.46	265.9
846.773	385.04
847.085	283.27
847.397	355.25
847.71	347.8
848.022	377.59
848.334	387.52
848.646	327.95
848.958	407.38
849.27	320.5
849.582	320.5
849.894	350.29
850.205	375.11
850.517	315.54
850.829	295.68
851.141	340.36
851.452	360.22
851.764	303.13
852.075	342.84
852.386	298.16
852.698	280.79
853.009	355.25
853.32	377.59
853.632	322.98
853.943	320.5
854.254	310.57
854.565	372.63
854.876	355.25
855.187	412.34
855.497	419.79
855.808	270.86
856.119	308.09
856.43	298.16
856.74	327.95
857.051	325.47
857.361	275.82
857.672	355.25
857.982	375.11
858.293	335.39
858.603	327.95
858.913	303.13
859.223	437.16
859.533	412.34
859.844	367.66
860.154	380.07
860.464	332.91
860.773	345.32
861.083	337.88
861.393	350.29
861.703	335.39
862.013	332.91
862.322	442.12
862.632	394.96
862.941	315.54
863.251	268.38
863.56	337.88
863.869	412.34
864.179	352.77
864.488	352.77
864.797	340.36
865.106	290.72
865.415	452.05
865.724	298.16
866.033	352.77
866.342	305.61
866.651	355.25
866.96	318.02
867.269	310.57
867.577	412.34
867.886	367.66
868.195	352.77
868.503	330.43
868.812	315.54
869.12	342.84
869.428	360.22
869.737	308.09
870.045	414.82
870.353	322.98
870.661	357.73
870.969	394.96
871.277	325.47
871.585	402.41
871.893	402.41
872.201	270.86
872.509	387.52
872.817	422.27
873.124	437.16
873.432	372.63
873.739	394.96
874.047	355.25
874.354	318.02
874.662	370.14
874.969	342.84
875.276	352.77
875.584	352.77
875.891	300.64
876.198	300.64
876.505	322.98
876.812	327.95
877.119	342.84
877.426	340.36
877.733	330.43
878.04	367.66
878.346	355.25
878.653	337.88
878.96	315.54
879.266	414.82
879.573	330.43
879.879	337.88
880.185	355.25
880.492	407.38
880.798	342.84
881.104	385.04
881.411	325.47
881.717	397.45
882.023	325.47
882.329	362.7
882.635	293.2
882.941	283.27
883.246	280.79
883.552	337.88
883.858	352.77
884.164	253.48
884.469	327.95
884.775	315.54
885.08	355.25
885.386	308.09
885.691	322.98
885.996	310.57
886.302	337.88
886.607	332.91
886.912	280.79
887.217	357.73
887.522	345.32
887.827	330.43
888.132	412.34
888.437	285.75
888.742	300.64
889.046	347.8
889.351	355.25
889.656	337.88
889.96	352.77
890.265	355.25
890.569	360.22
890.874	402.41
891.178	350.29
891.483	397.45
891.787	318.02
892.091	340.36
892.395	298.16
892.699	365.18
893.003	330.43
893.307	390
893.611	310.57
893.915	360.22
894.219	337.88
894.523	370.14
894.826	355.25
895.13	330.43
895.433	330.43
895.737	295.68
896.04	310.57
896.344	337.88
896.647	345.32
896.95	439.64
897.254	357.73
897.557	330.43
897.86	365.18
898.163	327.95
898.466	365.18
898.769	350.29
899.072	340.36
899.375	342.84
899.677	320.5
899.98	377.59
900.283	315.54
900.585	390
900.888	417.3
901.191	330.43
901.493	275.82
901.795	318.02
902.098	360.22
902.4	350.29
902.702	310.57
903.004	387.52
903.306	360.22
903.608	320.5
903.91	380.07
904.212	315.54
904.514	345.32
904.816	380.07
905.118	305.61
905.42	345.32
905.721	347.8
906.023	318.02
906.324	310.57
906.626	357.73
906.927	327.95
907.228	370.14
907.53	340.36
907.831	375.11
908.132	325.47
908.433	429.71
908.734	399.93
909.035	375.11
909.336	278.31
909.637	308.09
909.938	390
910.239	340.36
910.54	347.8
910.84	325.47
911.141	345.32
911.441	469.43
911.742	360.22
912.042	390
912.343	298.16
912.643	332.91
912.943	335.39
913.244	370.14
913.544	380.07
913.844	320.5
914.144	357.73
914.444	372.63
914.744	414.82
915.044	300.64
915.343	355.25
915.643	340.36
915.943	278.31
916.243	288.23
916.542	305.61
916.842	337.88
917.141	390
917.441	335.39
917.74	385.04
918.039	377.59
918.338	355.25
918.638	365.18
918.937	327.95
919.236	352.77
919.535	355.25
919.834	357.73
920.133	372.63
920.431	385.04
920.73	427.23
921.029	263.41
921.328	335.39
921.626	417.3
921.925	377.59
922.223	325.47
922.522	298.16
922.82	362.7
923.118	404.89
923.417	360.22
923.715	347.8
924.013	310.57
924.311	422.27
924.609	377.59
924.907	370.14
925.205	399.93
925.503	320.5
925.801	367.66
926.098	320.5
926.396	251
926.694	360.22
926.991	370.14
927.289	409.86
927.586	380.07
927.884	340.36
928.181	390
928.478	345.32
928.775	419.79
929.073	330.43
929.37	365.18
929.667	380.07
929.964	337.88
930.261	325.47
930.557	394.96
930.854	352.77
931.151	409.86
931.448	370.14
931.744	332.91
932.041	397.45
932.337	347.8
932.634	380.07
932.93	350.29
933.227	337.88
933.523	310.57
933.819	350.29
934.115	330.43
934.412	370.14
934.708	320.5
935.004	255.97
935.3	310.57
935.595	399.93
935.891	399.93
936.187	370.14
936.483	357.73
936.778	350.29
937.074	305.61
937.369	335.39
937.665	385.04
937.96	325.47
938.256	419.79
938.551	357.73
938.846	357.73
939.141	362.7
939.437	258.45
939.732	380.07
940.027	310.57
940.322	280.79
940.617	337.88
940.911	350.29
941.206	320.5
941.501	355.25
941.796	459.5
942.09	390
942.385	295.68
942.679	350.29
942.974	367.66
943.268	310.57
943.562	275.82
943.857	332.91
944.151	404.89
944.445	300.64
944.739	325.47
945.033	303.13
945.327	352.77
945.621	332.91
945.915	290.72
946.208	298.16
946.502	382.55
946.796	318.02
947.089	278.31
947.383	399.93
947.676	409.86
947.97	342.84
948.263	399.93
948.557	330.43
948.85	330.43
949.143	330.43
949.436	387.52
949.729	385.04
950.022	335.39
950.315	365.18
950.608	355.25
950.901	345.32
951.194	308.09
951.487	327.95
951.779	303.13
952.072	327.95
952.364	362.7
952.657	305.61
952.949	330.43
953.242	347.8
953.534	270.86
953.826	332.91
954.118	318.02
954.411	375.11
954.703	310.57
954.995	360.22
955.287	332.91
955.579	320.5
955.87	377.59
956.162	355.25
956.454	385.04
956.746	332.91
957.037	340.36
957.329	399.93
957.62	342.84
957.912	362.7
958.203	288.23
958.494	340.36
958.786	394.96
959.077	308.09
959.368	298.16
959.659	335.39
959.95	315.54
960.241	372.63
960.532	320.5
960.823	375.11
961.114	432.2
961.404	318.02
961.695	347.8
961.986	360.22
962.276	337.88
962.567	347.8
962.857	394.96
963.147	355.25
963.438	355.25
963.728	375.11
964.018	340.36
964.308	402.41
964.598	337.88
964.888	352.77
965.178	417.3
965.468	360.22
965.758	397.45
966.048	310.57
966.338	342.84
966.627	295.68
966.917	335.39
967.206	310.57
967.496	310.57
967.785	367.66
968.075	362.7
968.364	342.84
968.653	409.86
968.942	360.22
969.232	355.25
969.521	342.84
969.81	352.77
970.099	330.43
970.388	315.54
970.676	318.02
970.965	382.55
971.254	352.77
971.543	394.96
971.831	337.88
972.12	355.25
972.408	347.8
972.697	313.06
972.985	322.98
973.273	335.39
973.561	283.27
973.85	394.96
974.138	402.41
974.426	382.55
974.714	342.84
975.002	337.88
975.29	402.41
975.577	337.88
975.865	322.98
976.153	382.55
976.441	285.75
976.728	288.23
977.016	335.39
977.303	293.2
977.59	337.88
977.878	382.55
978.165	375.11
978.452	347.8
978.74	293.2
979.027	325.47
979.314	387.52
979.601	372.63
979.888	310.57
980.174	417.3
980.461	347.8
980.748	360.22
981.035	327.95
981.321	345.32
981.608	300.64
981.894	285.75
982.181	345.32
982.467	370.14
982.754	362.7
983.04	345.32
983.326	318.02
983.612	387.52
983.898	360.22
984.184	347.8
984.47	347.8
984.756	350.29
985.042	340.36
985.328	330.43
985.614	370.14
985.899	300.64
986.185	375.11
986.47	270.86
986.756	365.18
987.041	290.72
987.327	280.79
987.612	372.63
987.897	409.86
988.182	382.55
988.468	439.64
988.753	370.14
989.038	298.16
989.323	370.14
989.607	327.95
989.892	345.32
990.177	385.04
990.462	280.79
990.746	360.22
991.031	300.64
991.315	347.8
991.6	288.23
991.884	310.57
992.169	330.43
992.453	355.25
992.737	340.36
993.021	365.18
993.305	335.39
993.59	330.43
993.874	347.8
994.157	340.36
994.441	402.41
994.725	362.7
995.009	280.79
995.293	365.18
995.576	320.5
995.86	288.23
996.143	402.41
996.427	275.82
996.71	387.52
996.993	355.25
997.277	325.47
997.56	437.16
997.843	397.45
998.126	380.07
998.409	347.8
998.692	362.7
998.975	330.43
999.258	345.32
999.541	409.86
999.823	419.79
1000.106	412.34
1000.388	226.18
1000.671	322.98
1000.954	404.89
1001.236	360.22
1001.518	367.66
1001.801	382.55
1002.083	367.66
1002.365	347.8
1002.647	375.11
1002.929	370.14
1003.211	437.16
1003.493	330.43
1003.775	360.22
1004.057	322.98
1004.338	315.54
1004.62	340.36
1004.902	295.68
1005.183	241.07
1005.465	283.27
1005.746	382.55
1006.028	320.5
1006.309	357.73
1006.59	325.47
1006.871	342.84
1007.153	318.02
1007.434	385.04
1007.715	335.39
1007.996	278.31
1008.277	327.95
1008.557	320.5
1008.838	397.45
1009.119	327.95
1009.4	340.36
1009.68	345.32
1009.961	270.86
1010.241	315.54
1010.522	365.18
1010.802	340.36
1011.082	288.23
1011.362	315.54
1011.643	293.2
1011.923	318.02
1012.203	300.64
1012.483	305.61
1012.763	278.31
1013.042	283.27
1013.322	330.43
1013.602	409.86
1013.882	407.38
1014.161	320.5
1014.441	392.48
1014.72	355.25
1015	280.79
1015.279	280.79
1015.558	390
1015.838	342.84
1016.117	347.8
1016.396	285.75
1016.675	340.36
1016.954	300.64
1017.233	432.2
1017.512	350.29
1017.791	392.48
1018.07	340.36
1018.348	305.61
1018.627	298.16
1018.905	310.57
1019.184	332.91
1019.462	365.18
1019.741	397.45
1020.019	375.11
1020.297	350.29
1020.576	392.48
1020.854	273.34
1021.132	380.07
1021.41	380.07
1021.688	380.07
